R_Peak_Time_s
5.379
6.335
7.375
8.093
10.253
11.141
12.281
13.299
14.222
15.228
16.105
16.996
17.905
18.733
19.576
20.432
21.318
22.191
23.148
24.062
25.051
25.772
26.893
27.806
28.73
29.601
30.559
31.458
32.351
33.247
34.154
34.999
35.907
36.849
37.676
38.586
39.471
40.269
41.155
42.046
42.866
43.764
44.711
45.575
46.49
47.389
48.205
49.066
49.967
50.793
51.663
52.55
53.383
54.193
55.05
55.855
56.646
57.566
58.472
59.34
60.272
61.218
62.073
63.015
63.908
64.748
65.596
66.413
67.212
68.05
68.932
69.775
70.674
71.617
72.472
73.359
74.261
75.07
75.909
76.75
77.551
78.399
79.309
80.15
80.947
81.817
82.637
83.384
84.165
84.975
85.824
86.618
87.381
88.129
88.992
89.782
90.592
91.42
92.183
92.952
93.777
94.63
95.407
96.268
97.151
97.96
98.745
99.606
100.436
101.23
102.084
102.937
103.722
104.548
105.367
106.143
106.974
107.82
108.637
109.451
110.307
111.111
111.881
112.738
113.544
114.319
115.134
115.967
116.786
117.688
118.643
119.52
120.484
121.375
122.204
123.04
123.865
124.61
125.979
126.653
127.33
128.233
129.365
130.449
131.427
132.389
133.264
134.131
134.936
135.698
136.449
137.201
137.914
138.61
139.298
139.987
140.74
141.454
142.233
143.135
143.982
144.891
145.75
146.533
147.269
147.987
148.737
149.497
150.292
151.075
151.906
152.716
153.507
154.309
155.108
155.886
156.648
157.435
158.224
158.958
159.672
160.392
161.177
162.024
162.903
163.665
164.302
165.224
165.988
166.751
167.555
168.345
169.101
169.877
170.626
171.354
172.1
172.892
173.684
174.473
175.301
176.147
176.95
177.797
178.636
179.474
180.316
181.166
181.973
182.785
183.589
184.372
185.154
185.953
186.712
187.448
188.256
189.048
189.783
190.553
191.322
192.057
192.632
193.532
194.298
195.018
195.775
196.546
197.337
198.114
198.916
199.716
200.458
201.174
201.931
202.664
203.345
204.054
204.81
205.581
206.312
207.073
207.85
208.641
209.399
210.193
210.958
211.68
212.439
213.205
213.951
214.679
215.447
216.2
216.947
217.715
218.515
219.277
220.055
220.84
221.625
222.356
223.129
223.909
224.613
225.34
226.085
226.802
227.492
228.222
228.927
229.666
230.932
231.582
232.222
232.902
233.643
234.387
235.101
235.792
236.46
238.325
238.911
239.488
240.076
240.746
241.56
242.775
243.644
244.723
245.828
246.875
248.056
249.059
250.062
250.987
251.859
252.787
253.602
254.437
255.283
256.035
256.814
257.629
258.378
259.142
259.949
260.745
261.526
262.338
263.123
263.916
264.786
265.658
266.455
267.272
268.104
268.895
269.722
270.555
271.326
272.15
272.996
273.783
274.628
275.464
276.258
277.083
277.902
278.606
279.213
280.307
281.133
281.95
282.829
283.664
284.536
285.47
286.348
287.252
288.18
289.067
289.895
290.733
291.535
292.33
293.192
294.002
294.829
295.772
296.622
297.477
298.386
299.254
300.084
300.92
301.706
302.504
303.327
304.126
304.953
305.796
306.567
307.283
307.961
308.691
309.384
310.239
311.074
311.876
312.684
313.448
314.794
315.378
315.752
318.22
318.886
319.565
320.228
320.881
321.529
322.178
322.795
323.414
324.048
324.699
325.335
325.958
326.572
327.198
327.89
329.023
329.972
330.827
331.697
332.604
333.419
334.71
335.057
336.433
337.12
337.851
338.615
339.321
340.093
340.905
341.727
342.585
343.458
344.221
345.007
345.798
346.552
347.267
347.992
348.681
349.355
350.074
350.759
351.483
352.236
352.991
354.413
355.223
355.982
357.133
359.548
359.94
360.666
361.734
362.44
363.157
363.836
364.489
365.189
365.823
366.493
367.135
367.783
368.479
369.242
370.02
370.778
371.576
372.517
373.446
374.253
375.104
375.963
376.822
377.621
378.532
379.454
380.341
381.251
382.192
383.017
383.837
384.321
386.24
387.0
387.766
388.496
389.262
390.069
390.821
391.645
392.482
393.239
394.055
394.837
395.606
396.407
397.237
402.545
404.419
419.082
421.914
428.102
430.07
436.339
446.853
447.776
451.869
455.498
457.079
464.522
465.407
482.223
485.233
486.068
490.547
493.714
496.851
500.835
502.536
503.283
509.575
512.21
512.623
519.614
520.614
535.814
538.295
540.44
542.124
542.98
545.451
550.019
553.835
554.228
555.507
555.866
556.412
558.349
558.943
559.919
560.74
561.546
562.385
563.141
565.492
566.277
567.06
567.851
568.618
571.125
572.824
573.668
574.537
575.422
577.113
577.958
578.824
579.617
580.454
581.379
582.266
583.237
584.235
585.127
586.004
586.866
587.69
588.478
589.292
590.846
591.643
592.513
593.387
594.274
595.226
597.0
597.871
598.861
599.713
600.564
601.411
603.026
603.896
604.738
605.585
606.522
607.418
608.265
609.109
610.064
610.496
610.921
611.793
612.686
613.541
614.397
615.324
616.163
617.01
617.889
618.752
619.635
620.545
621.544
622.47
623.401
624.277
625.114
625.978
626.862
627.705
628.589
629.586
631.445
632.398
633.292
634.084
634.88
635.695
636.469
637.24
638.026
638.784
639.504
640.282
641.099
641.943
642.76
643.623
644.49
645.255
646.068
646.891
647.872
648.763
651.686
652.265
653.472
654.816
655.517
656.21
656.721
657.57
658.244
658.921
659.586
660.23
660.88
661.591
662.321
663.064
663.756
664.413
665.121
665.949
666.918
667.846
668.773
669.63
670.413
671.137
671.83
672.515
675.067
675.71
676.516
677.535
678.459
679.368
680.231
681.56
685.395
686.42
687.447
687.946
690.426
691.81
692.484
693.922
694.61
695.298
695.963
696.628
697.901
698.517
699.142
701.189
702.609
704.293
705.155
706.002
706.814
707.57
709.112
712.015
713.81
715.043
716.163
717.177
718.226
719.261
720.235
721.099
721.893
722.64
723.341
724.021
724.694
725.434
726.326
727.226
728.145
729.071
729.993
730.92
731.821
732.689
733.522
734.352
735.157
735.93
736.728
737.558
738.402
739.244
740.146
741.085
742.013
742.976
743.871
744.701
745.507
746.309
747.061
747.81
748.617
749.449
750.248
751.134
752.056
752.899
753.692
754.566
755.425
756.206
756.941
757.663
758.323
759.041
759.752
760.489
761.304
762.101
762.928
763.76
764.589
765.365
765.897
766.806
767.465
768.092
768.701
769.292
769.869
770.443
771.202
772.228
773.085
774.102
775.158
776.176
777.303
778.284
779.32
780.558
783.425
793.52
799.264
800.376
801.107
801.941
805.47
808.261
810.06
810.973
812.701
817.995
826.297
828.999
830.915
837.231
838.112
838.986
839.732
843.747
844.636
845.429
847.298
850.664
851.198
852.36
854.981
857.547
858.488
860.182
868.667
871.286
877.299
881.785
884.625
890.934
891.534
893.293
899.375
900.677
901.842
903.773
904.685
905.487
906.235
907.004
907.796
908.516
909.239
909.975
910.699
911.44
912.164
912.96
913.775
914.534
915.323
916.122
916.948
917.769
918.621
919.315
919.977
920.401
921.604
922.329
923.786
924.358
926.103
927.871
929.613
930.417
931.246
932.887
933.653
934.437
935.984
936.733
939.713
940.98
942.064
942.933
943.828
944.702
945.508
946.334
947.104
947.865
949.985
950.794
951.772
952.659
953.585
954.574
955.446
956.361
957.222
958.026
958.828
959.63
960.446
961.237
962.069
962.939
963.796
964.651
965.563
966.418
967.25
968.104
968.931
969.696
970.502
971.289
972.047
972.834
973.623
974.475
975.266
976.074
976.928
977.832
978.662
979.547
980.435
981.239
982.062
983.093
983.611
984.302
986.944
988.995
989.45
990.818
991.542
992.232
993.0
993.801
994.535
995.232
995.904
996.585
997.308
998.121
999.001
999.862
1000.666
1001.434
1002.177
1002.954
1003.734
1004.547
1005.389
1006.328
1007.284
1007.909
1009.059
1009.822
1010.593
1011.368
1012.208
1012.669
1013.084
1013.932
1014.788
1015.59
1016.372
1017.128
1017.82
1018.514
1019.192
1019.881
1020.743
1021.731
1022.698
1023.623
1024.502
1025.315
1026.131
1026.9
1027.637
1028.417
1029.212
1030.008
1030.851
1031.736
1032.581
1033.475
1034.382
1035.231
1036.082
1036.916
1037.734
1038.581
1039.442
1040.267
1041.096
1041.946
1042.747
1043.559
1044.4
1045.236
1046.048
1046.886
1047.718
1048.5
1049.237
1050.057
1050.792
1051.506
1052.275
1053.079
1053.868
1056.008
1056.819
1057.977
1059.017
1059.951
1060.883
1061.773
1062.621
1063.442
1064.229
1064.964
1065.647
1066.347
1067.011
1067.651
1068.369
1069.03
1069.778
1070.524
1071.236
1071.966
1072.773
1073.574
1074.341
1075.027
1075.755
1076.432
1077.156
1077.945
1078.731
1079.33
1080.865
1081.313
1084.472
1089.345
1090.317
1091.661
1092.378
1093.05
1093.468
1094.47
1096.17
1096.74
1097.331
1097.929
1098.54
1099.653
1100.332
1101.489
1102.059
1102.629
1103.187
1103.746
1104.308
1106.166
1107.026
1108.035
1109.04
1109.969
1110.839
1111.661
1112.434
1113.166
1113.873
1114.567
1115.249
1115.92
1116.589
1117.315
1118.284
1119.277
1120.226
1121.055
1121.855
1122.542
1123.974
1129.091
1130.476
1131.312
1132.02
1132.686
1133.327
1133.953
1134.651
1135.542
1136.548
1137.53
1138.685
1139.597
1140.46
1141.356
1142.407
1143.292
1144.193
1145.112
1145.992
1146.882
1147.833
1148.706
1149.563
1150.388
1151.142
1152.535
1153.192
1154.014
1154.926
1155.906
1156.806
1157.774
1158.668
1159.578
1160.453
1161.212
1162.0
1162.785
1163.495
1164.211
1164.895
1165.538
1166.261
1167.161
1167.575
1168.635
1169.166
1170.014
1170.863
1171.633
1172.335
1173.027
1173.699
1174.327
1174.957
1175.591
1176.254
1176.924
1177.594
1178.27
1178.928
1179.583
1180.224
1180.837
1181.439
1182.032
1182.615
1183.19
1183.754
1184.316
1184.866
1185.561
1186.621
1187.609
1188.607
1189.615
1190.507
1191.367
1192.15
1192.867
1193.566
1194.305
1195.402
1196.433
1197.402
1198.326
1199.174
1199.975
1200.726
1201.46
1202.168
1202.876
1203.656
1204.882
1206.027
1207.077
1207.98
1208.777
1209.55
1210.301
1211.04
1212.269
1213.279
1214.175
1215.058
1215.826
1216.604
1217.376
1218.146
1218.952
1219.751
1220.527
1221.26
1221.987
1222.803
1223.951
1224.944
1225.905
1226.855
1227.687
1228.499
1229.299
1230.084
1230.851
1231.651
1232.466
1233.227
1233.987
1234.789
1235.682
1236.482
1237.304
1238.169
1238.968
1239.771
1240.631
1241.397
1242.133
1242.86
1243.617
1244.37
1245.144
1245.98
1246.811
1247.614
1248.444
1249.276
1250.094
1250.886
1251.721
1252.497
1253.285
1254.069
1254.851
1255.586
1256.377
1257.178
1258.022
1258.852
1259.732
1260.615
1261.409
1262.218
1263.098
1263.905
1264.683
1265.505
1266.286
1267.033
1267.822
1268.629
1269.396
1270.156
1270.941
1271.744
1272.475
1273.175
1273.863
1274.511
1275.186
1275.866
1276.937
1277.918
1278.77
1279.662
1280.551
1281.387
1282.192
1282.966
1283.696
1284.422
1285.111
1285.786
1286.459
1287.173
1288.034
1288.889
1289.752
1290.633
1291.515
1292.36
1293.188
1293.987
1294.752
1295.53
1296.313
1297.078
1297.848
1298.623
1299.374
1300.154
1300.927
1301.73
1302.526
1303.334
1304.169
1304.966
1305.723
1306.499
1307.274
1308.05
1308.771
1309.49
1310.21
1314.688
1315.431
1316.142
1316.844
1317.538
1318.305
1319.151
1320.098
1321.03
1321.881
1322.636
1323.375
1324.103
1324.795
1325.467
1326.138
1326.884
1327.668
1328.414
1329.215
1330.076
1330.894
1331.723
1332.583
1333.369
1334.127
1334.868
1335.637
1336.406
1337.139
1337.923
1338.722
1339.529
1340.276
1341.092
1341.87
1342.652
1343.456
1344.27
1345.114
1345.99
1346.851
1347.656
1348.456
1349.274
1350.085
1350.893
1351.738
1352.608
1353.456
1354.344
1355.143
1355.915
1356.722
1357.481
1358.223
1358.998
1359.744
1360.522
1361.251
1362.042
1362.856
1363.669
1364.474
1365.326
1366.129
1366.88
1367.688
1368.456
1369.211
1369.857
1372.684
1373.386
1374.026
1374.682
1375.447
1376.258
1377.078
1377.873
1378.629
1379.361
1380.318
1380.714
1381.358
1381.982
1382.699
1390.629
1391.474
1392.314
1392.914
1393.901
1394.612
1395.282
1396.871
1397.345
1398.202
1399.048
1399.873
1400.686
1401.487
1402.251
1403.049
1403.83
1404.568
1405.352
1406.181
1407.831
1408.671
1409.526
1410.358
1411.11
1411.951
1412.763
1413.6
1414.421
1415.266
1416.057
1416.859
1417.677
1418.463
1419.198
1419.997
1420.782
1421.61
1422.382
1423.197
1423.922
1424.691
1425.483
1426.274
1427.057
1427.856
1428.711
1429.565
1430.341
1431.425
1431.972
1432.813
1433.574
1434.349
1435.12
1435.825
1436.528
1437.218
1437.867
1438.523
1439.171
1439.857
1450.206
1452.2
1454.516
1455.864
1456.473
1456.99
1459.152
1460.022
1463.987
1467.704
1469.12
1469.826
1470.567
1471.347
1472.126
1472.901
1473.557
1474.429
1475.163
1475.891
1476.604
1477.314
1478.012
1478.693
1479.372
1480.066
1480.836
1482.621
1483.906
1484.566
1488.414
1491.157
1492.885
1494.48
1502.874
1503.517
1504.485
1505.223
1505.884
1507.021
1507.916
1509.09
1510.096
1510.949
1511.774
1512.689
1513.626
1514.459
1515.222
1515.949
1516.659
1517.438
1518.567
1519.571
1520.511
1521.401
1522.217
1523.686
1524.392
1525.058
1525.705
1526.394
1527.713
1528.589
1529.416
1530.344
1531.564
1532.729
1533.668
1534.534
1535.428
1536.767
1537.099
1537.415
1538.438
1539.708
1540.965
1542.869
1544.802
1553.08
1554.396
1555.091
1555.825
1556.629
1557.492
1558.338
1559.147
1559.972
1560.776
1561.578
1564.879
1572.859
1576.12
1586.939
1588.431
1589.84
1596.08
1597.253
1598.143
1598.707
1599.413
1600.094
1600.794
1601.505
1602.224
1602.956
1603.724
1604.54
1605.405
1606.518
1607.484
1608.414
1609.332
1610.211
1611.122
1612.09
1613.022
1613.995
1614.958
1615.895
1616.903
1617.829
1618.714
1619.638
1620.537
1621.377
1622.234
1623.168
1624.011
1624.889
1625.806
1626.648
1627.591
1628.563
1629.466
1630.427
1631.37
1632.227
1633.078
1633.918
1634.711
1635.593
1636.503
1637.371
1638.169
1638.933
1639.659
1640.473
1641.771
1642.945
1643.906
1644.828
1645.754
1646.644
1647.477
1648.337
1649.246
1650.116
1651.028
1652.036
1653.014
1654.019
1655.065
1655.994
1656.929
1657.942
1658.91
1660.088
1660.789
1662.894
1672.76
1675.734
1676.527
1678.021
1679.451
1683.143
1686.468
1693.479
1694.549
1695.355
1696.109
1696.838
1697.579
1698.406
1699.437
1700.354
1701.224
1702.083
1702.922
1704.132
1705.108
1706.895
1708.417
1709.252
1710.052
1710.804
1711.654
1712.555
1713.375
1714.171
1714.975
1715.725
1716.433
1717.116
1717.874
1718.486
1724.764
1725.269
1726.183
1727.058
1728.124
1729.325
1730.478
1731.644
1732.766
1733.862
1734.941
1736.027
1736.998
1738.061
1739.096
1740.126
1741.191
1742.224
1743.231
1744.218
1745.125
1745.593
1746.037
1746.901
1747.706
1748.607
1749.478
1750.313
1751.245
1753.001
1753.865
1754.69
1755.449
1756.28
1757.07
1757.825
1758.613
1759.417
1760.236
1761.018
1761.863
1762.686
1763.437
1764.205
1765.003
1765.749
1766.461
1767.218
1767.959
1768.671
1769.351
1770.035
1770.706
1771.389
1772.176
1773.06
1773.845
1774.693
1775.523
1776.313
1777.06
1777.774
1778.465
1779.144
1779.854
1780.692
1781.771
1782.83
1783.779
1784.801
1785.776
1786.691
1787.595
1788.464
1789.287
1790.09
1790.902
1791.674
1792.402
1793.203
1794.0
1794.833
1795.618
1796.434
1797.252
1798.097
1798.89
1799.731
1800.542
1801.304
1802.023
1803.874
1804.757
1805.592
1806.521
1807.384
1807.981
1808.73
1809.665
1810.359
1810.798
1812.285
1812.902
1813.594
1814.585
1815.125
1816.356
1817.189
1818.787
1819.561
1820.319
1821.035
1821.731
1822.394
1825.048
1825.687
1826.343
1826.765
1828.373
1829.309
1831.836
1832.763
1833.945
1835.017
1836.014
1836.938
1837.792
1838.598
1839.328
1839.987
1841.98
1842.678
1843.793
1845.542
1847.174
1847.935
1848.656
1849.363
1850.072
1850.77
1851.53
1852.3
1853.087
1853.855
1854.673
1855.541
1856.478
1857.378
1858.272
1859.157
1859.946
1860.685
1861.44
1862.211
1863.051
1863.916
1864.793
1865.693
1866.638
1867.519
1868.383
1869.189
1869.602
1879.75
1881.66
1888.808
1889.242
1891.411
1891.83
1897.045
1898.952
1904.036
1904.748
1906.418
1907.295
1927.19
1927.836
1928.575
1929.28
1929.665
1931.503
1932.338
1932.786
1933.249
1936.803
1937.376
1938.108
1938.675
1939.848
1940.906
1941.393
1941.89
1942.555
1942.937
1943.622
1944.321
1945.02
1946.527
1947.813
1948.435
1949.515
1950.053
1952.429
1953.683
1958.496
1960.101
1960.864
1961.586
1961.951
1962.375
1963.331
1964.865
1966.917
1967.903
1968.878
1969.755
1970.521
1971.271
1972.012
1973.037
1978.056
1978.994
1980.674
1981.373
1982.082
1984.439
1986.541
1987.123
1987.942
1988.505
1989.123
1990.386
1991.55
1994.025
1995.845
1996.716
1997.538
1998.368
1999.284
2000.301
2001.327
2002.324
2003.251
2004.121
2004.94
2005.716
2006.464
2007.218
2007.93
2008.636
2009.434
2010.275
2011.211
2012.187
2013.252
2014.205
2015.171
2016.176
2017.104
2018.089
2019.015
2019.835
2020.681
2021.581
2022.393
2023.331
2024.307
2025.157
2026.008
2026.936
2027.805
2028.765
2029.767
2030.693
2031.651
2032.69
2033.652
2034.608
2035.581
2036.417
2037.292
2038.166
2038.934
2039.76
2040.588
2041.44
2042.201
2043.056
2043.973
2044.855
2045.376
2045.834
2046.847
2047.721
2048.663
2049.584
2050.41
2051.269
2052.134
2052.916
2053.75
2054.591
2055.383
2056.276
2057.221
2058.077
2058.956
2059.836
2060.621
2061.439
2062.256
2062.935
2063.81
2064.569
2065.34
2066.072
2066.845
2067.561
2068.262
2068.953
2069.628
2070.315
2070.977
2071.894
2072.956
2073.609
2074.251
2074.891
2075.516
2076.143
2076.787
2077.575
2078.44
2079.85
2081.539
2082.25
2082.948
2083.635
2084.348
2085.052
2085.778
2086.538
2087.322
2088.115
2088.972
2089.82
2090.647
2091.465
2092.273
2093.056
2093.861
2094.697
2095.48
2096.358
2097.225
2098.057
2098.928
2099.762
2100.549
2101.373
2102.181
2103.028
2103.827
2104.637
2105.446
2106.213
2106.984
2107.739
2108.472
2109.2
2109.951
2110.692
2111.426
2112.136
2112.858
2113.579
2114.279
2114.976
2115.693
2116.429
2117.167
2117.901
2118.674
2119.426
2119.925
2120.882
2121.615
2122.331
2131.09
2137.478
2138.125
2138.818
2139.599
2140.395
2144.772
2147.515
2148.21
2148.938
2149.63
2150.306
2150.956
2151.654
2152.304
2152.947
2153.582
2154.234
2154.932
2155.645
2156.37
2157.122
2157.916
2158.787
2159.631
2160.469
2161.315
2162.066
2162.824
2163.545
2164.305
2165.099
2165.911
2166.659
2167.47
2168.264
2169.062
2169.793
2170.611
2171.438
2172.229
2173.031
2173.882
2174.727
2175.526
2176.207
2177.178
2181.253
2182.131
2182.69
2183.512
2186.575
2187.625
2188.415
2189.219
2189.944
2190.678
2191.394
2192.148
2193.047
2193.903
2194.795
2195.775
2196.767
2198.093
2200.066
2204.156
2205.65
2206.507
2207.417
2208.265
2209.161
2210.114
2211.052
2211.951
2212.873
2213.678
2214.486
2215.303
2216.116
2216.872
2217.602
2218.304
2219.179
2220.267
2221.198
2222.254
2223.274
2224.207
2225.075
2225.917
2226.67
2227.466
2228.278
2229.121
2229.836
2230.634
2231.443
2232.297
2233.103
2233.98
2234.821
2235.575
2236.147
2237.063
2237.757
2238.461
2239.154
2239.816
2240.241
2241.15
2241.795
2242.434
2243.061
2243.694
2244.373
2245.077
2245.737
2246.488
2247.273
2247.684
2248.744
2249.511
2250.282
2251.0
2251.761
2252.545
2253.369
2254.144
2254.956
2255.8
2256.613
2257.424
2258.259
2259.09
2259.906
2260.767
2261.612
2262.433
2263.325
2264.278
2265.193
2266.147
2267.135
2268.006
2268.925
2269.841
2270.621
2271.425
2272.288
2273.129
2273.955
2274.768
2275.233
2275.792
2277.413
2278.294
2279.004
2280.38
2281.327
2281.836
2282.606
2283.389
2284.145
2284.858
2285.567
2286.514
2287.025
2287.937
2288.723
2289.63
2290.526
2291.329
2292.144
2292.965
2293.76
2294.525
2295.295
2297.045
2297.72
2299.092
2300.8
2301.293
2308.277
2312.173
2313.565
2315.565
2315.949
2316.771
2317.471
2318.017
2319.094
2321.036
2321.902
2322.728
2324.958
2327.229
2329.869
2330.871
2332.109
2332.953
2335.576
2336.311
2338.48
2339.209
2339.902
2340.598
2341.315
2343.434
2344.168
2344.835
2346.376
2347.226
2347.879
2352.962
2354.338
2355.014
2358.218
2361.68
2362.892
2363.958
2364.764
2365.267
2370.094
2371.409
2375.358
2376.039
2377.1
2379.601
2380.27
2380.72
2381.607
2399.376
2413.298
2413.617
2417.944
2421.214
2426.74
2431.388
2433.233
2433.76
2435.551
2445.397
2446.225
2449.999
2451.301
2452.2
2453.105
2454.348
2455.178
2455.536
2456.416
2457.326
2458.129
2458.997
2459.871
2460.779
2461.759
2462.778
2463.762
2464.747
2465.683
2466.558
2467.438
2468.325
2469.145
2470.097
2471.072
2472.004
2472.919
2473.859
2474.768
2475.635
2476.611
2477.528
2484.506
2485.402
2486.362
2487.312
2489.104
2492.698
2494.445
2495.384
2497.25
2498.201
2501.464
2505.627
2506.598
2507.014
2508.596
2512.621
2513.241
2514.139
2515.124
2516.068
2517.388
2518.453
2519.418
2520.358
2521.219
2522.069
2523.169
2525.492
2528.128
2529.219
2530.046
2530.939
2531.863
2532.713
2533.599
2534.525
2535.402
2536.404
2537.399
2538.337
2539.268
2540.236
2541.141
2542.116
2543.077
2544.004
2544.964
2546.0
2547.04
2548.219
2549.191
2550.094
2551.064
2551.978
2552.863
2553.907
2554.874
2556.035
2557.113
2558.037
2559.031
2560.012
2560.969
2561.936
2562.837
2563.746
2564.688
2565.574
2566.434
2567.352
2568.26
2569.039
2569.838
2570.614
2571.522
2572.436
2573.282
2574.226
2575.175
2576.039
2576.895
2577.774
2578.595
2579.444
2580.353
2581.293
2582.149
2583.08
2584.014
2584.648
2585.837
2586.855
2587.789
2588.766
2589.801
2590.761
2591.774
2592.866
2593.865
2594.897
2595.979
2596.947
2598.076
2599.228
2600.274
2601.34
2602.345
2603.274
2604.242
2605.247
2605.891
2606.193
2607.182
2608.29
2608.795
2609.218
2610.171
2611.127
2611.971
2616.626
2617.284
2618.059
2618.815
2619.564
2620.362
2621.242
2622.171
2623.013
2623.897
2624.806
2625.629
2626.455
2627.291
2628.103
2628.896
2629.71
2630.542
2631.361
2632.235
2633.195
2634.109
2635.076
2636.095
2636.997
2637.86
2638.711
2642.793
2645.429
2646.109
2646.934
2647.742
2648.498
2649.245
2650.016
2650.875
2651.731
2652.604
2653.822
2654.899
2655.93
2657.003
2657.907
2658.789
2659.665
2660.535
2661.345
2662.195
2663.298
2663.835
2667.874
2669.856
2671.993
2674.362
2679.013
2679.528
2680.201
2680.888
2681.554
2682.253
2683.172
2683.67
2684.357
2685.325
2686.337
2687.096
2688.006
2688.896
2689.784
2690.621
2691.422
2692.158
2692.857
2693.546
2694.198
2694.9
2696.301
2697.607
2698.758
2699.834
2700.821
2701.77
2702.675
2703.529
2704.327
2705.093
2705.835
2706.518
2707.206
2707.969
2709.3
2710.371
2711.478
2712.6
2713.558
2714.474
2715.334
2716.873
2717.621
2718.48
2719.579
2720.579
2721.508
2722.396
2723.212
2723.977
2724.715
2725.403
2726.092
2726.742
2727.404
2728.075
2728.74
2730.766
2731.748
2732.82
2733.568
2735.916
2736.711
2737.493
2740.315
2742.253
2743.506
2745.691
2747.028
2748.606
2750.135
2750.895
2751.607
2752.977
2761.977
2762.647
2765.501
2770.163
2771.118
2772.419
2776.064
2776.696
2778.34
2779.436
2782.416
2784.344
2784.971
2785.632
2787.014
2787.627
2788.177
2788.875
2790.22
2790.872
2791.513
2792.202
2793.128
2794.055
2794.939
2795.76
2796.56
2801.884
2802.478
2803.116
2803.826
2804.495
2805.227
2805.998
2806.739
2807.403
2808.714
2809.37
2810.174
2811.22
2812.195
2813.138
2814.01
2814.819
2815.587
2816.311
2816.97
2817.65
2818.311
2819.677
2820.892
2821.833
2822.658
2823.407
2824.246
2825.525
2826.67
2827.57
2828.45
2829.236
2829.951
2830.647
2831.339
2832.028
2832.84
2833.914
2834.911
2835.802
2836.635
2837.457
2838.323
2839.182
2840.01
2840.749
2845.994
2847.674
2848.74
2849.957
2851.039
2852.116
2853.113
2854.076
2854.907
2855.644
2856.39
2857.246
2858.247
2859.121
2859.908
2860.763
2861.706
2862.578
2863.389
2864.258
2865.118
2865.9
2866.646
2867.385
2868.169
2869.022
2869.834
2870.643
2871.46
2872.269
2873.076
2873.879
2874.651
2875.456
2879.804
2881.469
2881.941
2882.627
2883.273
2883.933
2884.363
2885.269
2885.74
2886.623
2888.22
2889.759
2890.509
2891.17
2906.378
2912.751
2913.817
2915.749
2916.63
2919.149
2920.137
2921.858
2925.851
2928.641
2928.95
2930.422
2935.374
2937.332
2942.898
2943.727
2947.292
2950.31
2952.245
2954.986
2955.889
2956.407
2957.823
2959.92
2960.414
2961.037
2961.536
2962.371
2963.332
2964.285
2965.303
2966.305
2967.202
2968.083
2968.963
2969.859
2970.686
2971.611
2979.737
2980.32
2983.116
2984.833
2985.95
2986.807
2987.592
2988.439
2989.422
2990.41
2991.428
2996.346
2996.888
2997.706
2998.516
2999.31
3000.131
3001.181
3002.126
3003.161
3004.173
3005.077
3005.986
3006.938
3007.783
3008.641
3009.587
3010.568
3011.574
3012.697
3013.723
3014.733
3015.693
3016.575
3017.387
3018.246
3019.171
3020.128
3021.292
3022.291
3023.275
3024.255
3025.151
3026.047
3026.993
3027.851
3028.823
3029.768
3030.679
3031.659
3032.58
3033.434
3034.331
3035.245
3036.094
3037.005
3037.868
3038.635
3039.065
3039.579
3040.106
3040.92
3041.824
3042.708
3043.698
3044.733
3045.662
3046.65
3047.602
3048.448
3049.354
3050.282
3051.139
3052.046
3052.983
3053.886
3054.766
3055.699
3056.61
3057.535
3058.512
3059.383
3060.279
3061.207
3062.073
3062.979
3063.9
3064.782
3065.649
3066.582
3067.453
3068.349
3069.236
3070.135
3070.954
3072.13
3074.175
3074.813
3075.314
3076.24
3078.038
3078.81
3079.653
3080.479
3081.287
3082.08
3082.846
3083.275
3086.866
3087.493
3089.689
3092.032
3094.617
3095.848
3098.565
3099.754
3101.891
3102.953
3103.96
3104.87
3105.773
3106.867
3109.034
3109.916
3110.779
3111.569
3112.417
3113.322
3114.185
3115.133
3116.133
3117.268
3118.489
3119.529
3120.53
3121.448
3122.359
3123.231
3124.099
3125.021
3125.919
3126.776
3127.668
3128.557
3130.943
3131.705
3133.92
3135.16
3138.442
3141.041
3141.798
3142.434
3145.317
3145.728
3146.163
3146.94
3147.71
3148.422
3149.152
3149.88
3150.612
3151.369
3152.202
3153.066
3153.917
3154.879
3155.801
3156.618
3157.443
3165.046
3166.113
3167.506
3168.192
3168.92
3169.695
3170.466
3171.244
3171.998
3172.777
3173.512
3174.222
3174.915
3175.638
3176.484
3176.99
3177.437
3178.721
3179.798
3180.901
3181.784
3182.614
3183.507
3184.453
3185.363
3186.275
3187.153
3187.993
3188.856
3189.686
3190.535
3191.308
3192.236
3193.042
3193.903
3194.716
3195.485
3196.226
3196.983
3197.815
3198.765
3199.658
3200.729
3201.914
3202.955
3203.938
3204.831
3205.639
3206.473
3207.353
3208.231
3209.192
3210.121
3211.069
3212.073
3212.986
3213.942
3214.929
3215.891
3216.853
3217.776
3218.759
3219.804
3220.735
3221.738
3222.713
3223.661
3224.672
3225.6
3226.499
3227.34
3228.264
3229.349
3230.342
3231.445
3232.537
3233.52
3234.569
3235.467
3236.387
3237.289
3238.109
3238.987
3239.975
3240.727
3241.244
3241.814
3242.754
3243.657
3244.741
3245.751
3246.691
3247.68
3248.587
3249.463
3250.361
3251.23
3252.048
3252.992
3253.959
3254.865
3255.941
3257.104
3258.227
3259.325
3260.342
3261.357
3262.345
3263.281
3264.324
3265.567
3266.742
3267.938
3269.007
3270.108
3271.258
3272.2
3273.154
3274.156
3275.094
3276.245
3277.5
3278.539
3279.572
3280.538
3281.484
3282.528
3283.459
3284.434
3285.556
3286.472
3287.501
3288.775
3289.783
3290.769
3291.801
3292.715
3293.686
3294.765
3295.748
3296.842
3297.897
3298.807
3299.686
3300.687
3301.623
3302.653
3303.813
3304.879
3306.004
3307.031
3308.01
3308.975
3309.865
3310.752
3311.718
3312.639
3313.66
3314.654
3315.59
3316.754
3317.9
3319.022
3320.111
3321.057
3321.979
3322.888
3323.753
3324.645
3325.616
3326.514
3327.501
3328.494
3329.389
3330.211
3331.044
3331.809
3332.55
3332.858
3333.299
3334.032
3334.837
3335.689
3336.475
3337.255
3338.09
3338.902
3339.653
3340.439
3341.234
3342.046
3342.789
3343.6
3344.434
3345.281
3346.079
3346.943
3347.817
3348.721
3350.541
3351.591
3351.98
3352.323
3353.172
3354.034
3355.055
3356.043
3356.982
3357.904
3358.8
3359.596
3360.401
3361.234
3362.085
3362.917
3363.996
3365.053
3366.014
3366.99
3367.951
3368.833
3369.67
3370.453
3371.966
3373.154
3375.132
3376.809
3377.695
3378.347
3383.316
3384.26
3386.811
3387.654
3398.506
3399.49
3400.303
3402.245
3403.133
3404.134
3409.199
3410.035
3411.062
3413.002
3414.051
3414.987
3417.872
3421.398
3425.244
3427.188
3428.385
3429.087
3429.882
3430.643
3431.389
3432.208
3433.057
3433.855
3434.712
3435.594
3436.373
3437.196
3438.028
3438.825
3439.596
3440.4
3441.24
3442.034
3442.838
3443.671
3444.514
3445.315
3446.567
3447.594
3448.273
3449.679
3450.374
3451.114
3453.289
3453.874
3454.757
3455.449
3456.154
3456.829
3457.511
3459.392
3460.049
3460.673
3461.319
3462.013
3462.701
3463.393
3464.08
3464.759
3465.407
3466.073
3466.716
3467.347
3467.99
3468.645
3469.288
3469.925
3470.565
3471.207
3471.843
3472.578
3473.889
3474.956
3475.894
3477.128
3478.238
3479.168
3480.139
3481.006
3481.82
3482.706
3484.018
3485.166
3486.185
3487.124
3487.961
3488.738
3489.539
3490.908
3492.086
3492.982
3493.878
3494.838
3496.158
3497.26
3498.371
3499.329
3500.359
3501.544
3502.487
3503.317
3504.073
3504.891
3506.305
3507.49
3508.655
3509.831
3510.896
3512.0
3513.065
3514.009
3514.998
3515.952
3516.939
3517.955
3518.932
3519.815
3520.82
3521.981
3522.986
3523.994
3525.181
3526.124
3526.987
3527.947
3529.117
3535.009
3538.719
3539.724
3541.818
3542.603
3544.794
3557.412
3557.845
3558.934
3559.701
3560.376
3562.803
3564.68
3566.335
3567.383
3567.843
3570.659
3574.092
3574.917
3575.56
3576.188
3577.923
3580.632
3581.439
3582.114
3582.774
3583.386
3584.03
3584.698
3585.849
3586.874
3587.774
3588.612
3589.524
3590.357
3591.138
3591.915
3592.692
3593.389
3594.059
3594.85
3595.87
3596.739
3597.697
3598.698
3599.6
3600.504
3601.453
3603.503
3604.405
3604.875
3605.477
3605.952
3606.27
3607.161
3607.971
3608.738
3609.646
3610.613
3611.531
3612.321
3613.188
3614.121
3614.983
3615.847
3616.76
3617.598
3618.509
3619.457
3620.337
3621.17
3622.072
3622.88
3623.686
3624.64
3625.527
3626.364
3627.305
3628.165
3628.944
3629.826
3630.686
3631.511
3631.978
3633.185
3633.626
3635.336
3637.13
3638.043
3638.912
3639.735
3640.593
3641.345
3641.795
3642.136
3642.907
3643.798
3644.623
3645.471
3646.412
3647.235
3648.683
3649.42
3650.275
3651.162
3651.999
3653.04
3654.057
3655.011
3655.984
3656.876
3657.73
3658.548
3659.315
3660.106
3661.025
3661.899
3662.841
3663.814
3664.208
3668.165
3668.993
3669.944
3670.819
3671.786
3672.673
3673.472
3674.26
3675.086
3676.156
3676.627
3677.419
3678.347
3679.283
3680.312
3681.382
3682.313
3683.291
3684.285
3685.147
3685.998
3687.021
3688.164
3689.249
3690.357
3691.262
3692.207
3693.232
3693.548
3694.14
3695.056
3696.054
3696.99
3697.999
3699.016
3699.89
3700.803
3701.769
3702.66
3703.58
3704.527
3705.398
3706.305
3707.156
3707.935
3708.673
3709.409
3710.272
3710.96
3711.989
3712.859
3713.467
3714.569
3715.42
3716.371
3717.277
3718.144
3719.058
3719.883
3720.648
3721.413
3722.242
3724.008
3724.627
3726.555
3727.518
3728.939
3729.883
3730.925
3733.015
3733.486
3734.934
3736.01
3736.652
3737.27
3740.757
3745.87
3746.891
3747.616
3748.87
3751.506
3752.417
3753.196
3753.956
3754.68
3755.441
3756.162
3756.983
3757.743
3758.66
3759.699
3760.581
3761.39
3762.337
3763.54
3764.455
3764.757
3765.378
3766.342
3767.227
3768.204
3769.236
3770.173
3771.263
3772.373
3773.334
3774.283
3775.237
3776.123
3776.887
3777.309
3778.142
3779.107
3780.054
3781.033
3781.9
3782.675
3783.534
3784.483
3785.363
3786.432
3787.576
3788.586
3789.668
3790.692
3791.61
3792.703
3793.912
3794.811
3796.474
3798.361
3806.403
3808.633
3813.318
3818.027
3819.047
3823.943
3827.0
3827.425
3829.443
3829.989
3830.909
3831.658
3832.371
3833.045
3833.761
3834.534
3835.551
3836.559
3837.685
3838.776
3839.809
3840.527
3840.926
3841.48
3842.217
3842.96
3843.76
3844.721
3845.746
3846.812
3847.867
3848.902
3849.864
3850.752
3851.589
3852.418
3853.279
3854.098
3854.937
3855.776
3856.688
3857.555
3858.448
3859.263
3860.028
3860.754
3861.437
3862.106
3862.853
3864.258
3865.157
3866.017
3867.389
3868.597
3869.732
3870.782
3871.641
3872.595
3873.721
3874.727
3875.78
3876.839
3877.777
3878.741
3879.703
3880.619
3881.539
3882.43
3883.394
3884.338
3885.172
3886.089
3887.061
3888.017
3889.011
3890.085
3890.958
3893.983
3895.326
3896.451
3897.404
3898.242
3899.127
3900.05
3900.92
3901.626
3902.468
3903.229
3903.993
3904.412
3908.788
3910.512
3912.159
3914.317
3915.623
3916.83
3917.67
3918.89
3924.82
3926.782
3933.651
3934.191
3934.61
3936.628
3938.961
3940.213
3941.392
3941.987
3942.884
3943.728
3944.478
3945.199
3946.053
3952.16
3952.915
3954.025
3954.515
3955.286
3955.896
3956.492
3957.088
3957.671
3958.256
3958.836
3959.445
3960.045
3960.617
3961.217
3961.8
3962.41
3963.133
3963.978
3964.792
3965.299
3973.225
3974.49
3975.28
3976.063
3976.837
3977.749
3978.776
3979.723
3980.944
3982.184
3983.123
3983.914
3984.707
3985.929
3987.064
3988.02
3988.936
3994.151
3994.932
3995.786
3996.605
3997.472
3998.505
3999.464
4000.368
4001.302
4002.184
4003.11
4004.073
4004.965
4005.934
4006.925
4007.872
4008.854
4009.734
4010.514
4011.296
4012.11
4013.054
4013.891
4014.699
4015.526
4016.373
4017.131
4017.911
4018.727
4019.748
4020.753
4021.668
4022.551
4023.353
4024.178
4025.002
4025.852
4026.752
4027.7
4028.633
4029.541
4030.455
4031.372
4032.249
4033.13
4033.988
4034.847
4035.733
4036.513
4037.277
4037.992
4038.732
4039.576
4040.785
4042.211
4043.511
4044.25
4044.951
4045.657
4046.342
4047.051
4047.763
4048.56
4049.338
4050.103
4050.913
4051.698
4052.467
4053.268
4054.065
4054.827
4055.593
4056.408
4057.206
4058.027
4058.952
4059.832
4060.734
4061.695
4062.682
4063.593
4064.526
4065.401
4066.272
4067.145
4068.08
4069.009
4069.945
4070.872
4071.712
4072.607
4073.579
4074.423
4075.281
4076.16
4076.963
4077.8
4078.714
4079.567
4080.452
4081.381
4082.284
4083.179
4084.15
4085.026
4085.867
4086.716
4087.535
4088.273
4089.015
4089.776
4090.712
4091.677
4092.334
4093.078
4093.514
4093.881
4094.589
4095.347
4096.098
4096.878
4097.698
4098.238
4101.846
4102.703
4103.461
4104.236
4104.98
4105.762
4106.494
4107.228
4108.06
4109.521
4110.675
4111.73
4112.784
4113.76
4114.764
4115.777
4116.679
4117.551
4117.933
4118.41
4119.255
4120.02
4120.834
4121.679
4122.674
4123.589
4124.545
4125.527
4126.46
4127.43
4128.423
4129.386
4130.299
4131.136
4131.908
4132.656
4133.401
4134.192
4135.497
4135.868
4137.277
4138.065
4138.871
4139.748
4140.569
4141.426
4142.302
4143.147
4143.97
4144.809
4145.686
4146.489
4147.333
4148.144
4148.958
4149.785
4150.69
4151.669
4152.589
4153.545
4154.644
4155.546
4156.428
4157.349
4158.264
4159.123
4160.055
4161.028
4161.979
4162.936
4163.967
4164.895
4165.889
4166.874
4167.836
4168.788
4169.722
4170.636
4171.504
4172.47
4173.441
4174.387
4175.316
4176.264
4177.137
4177.995
4178.876
4179.711
4180.611
4181.604
4182.506
4183.405
4184.566
4185.618
4186.621
4187.57
4188.434
4189.322
4190.236
4191.064
4191.953
4192.888
4193.834
4194.831
4195.934
4196.917
4197.887
4198.849
4199.669
4200.547
4201.516
4202.582
4203.725
4204.797
4205.648
4206.495
4207.387
4208.289
4209.114
4209.877
4210.647
4211.45
4212.734
4213.658
4214.579
4215.511
4216.427
4217.228
4218.033
4218.807
4219.531
4220.227
4220.909
4221.592
4222.349
4223.228
4224.162
4225.278
4226.232
4227.309
4228.333
4229.29
4230.232
4231.081
4231.845
4232.57
4233.273
4233.97
4234.761
4235.769
4236.686
4237.856
4239.26
4239.951
4240.51
4240.95
4241.895
4242.775
4245.105
4245.998
4247.301
4248.438
4249.392
4250.281
4251.035
4251.811
4252.58
4253.393
4254.373
4255.297
4256.257
4257.225
4258.154
4259.023
4259.862
4260.681
4261.535
4262.416
4263.308
4264.273
4265.234
4266.161
4267.081
4267.935
4268.838
4269.766
4270.655
4271.568
4272.486
4273.402
4274.326
4275.178
4276.671
4277.475
4278.817
4279.904
4280.82
4281.791
4282.687
4283.473
4284.477
4285.666
4286.897
4288.115
4289.314
4290.363
4291.296
4292.177
4292.984
4293.742
4294.469
4295.164
4295.838
4296.478
4297.104
4297.725
4298.361
4299.614
4300.67
4301.85
4302.83
4303.41
4304.105
4311.241
4312.13
4312.995
4313.818
4314.654
4315.5
4316.348
4317.392
4318.634
4319.35
4320.036
4320.696
4321.364
4322.492
4323.447
4324.486
4325.674
4326.634
4327.414
4329.137
4330.487
4331.704
4332.865
4333.783
4334.287
4335.672
4336.516
4338.009
4339.126
4339.629
4342.797
4344.132
4344.598
4345.133
4346.758
4348.082
4356.871
4357.518
4358.105
4361.701
4363.411
4363.825
4368.504
4371.119
4374.257
4376.336
4377.194
4378.696
4379.515
4379.828
4380.278
4381.045
4381.859
4382.629
4383.421
4384.29
4385.345
4386.58
4387.742
4388.694
4389.609
4392.16
4396.813
4397.939
4399.18
4400.71
4403.082
4403.521
4404.03
4404.919
4405.678
4406.426
4407.116
4407.743
4408.491
4409.154
4409.916
4410.644
4411.422
4412.131
4412.861
4413.583
4414.589
4415.478
4416.422
